"Time (s)"	"Acceleration x (m/s^2)"	"Acceleration y (m/s^2)"	"Acceleration z (m/s^2)"
5.060077000E-3	-2.681505919E0	3.172317266E0	7.740454197E0
7.860462000E-3	-2.715024710E0	3.205836058E0	7.733271599E0
9.154154000E-3	-2.726995707E0	3.227383852E0	7.745242596E0
1.188768400E-2	-2.717418909E0	3.246537447E0	7.771578789E0
1.365092300E-2	-2.674323320E0	3.258508444E0	7.807491779E0
1.590526000E-2	-2.621650934E0	3.251325846E0	7.843404770E0
1.711892300E-2	-2.578555346E0	3.244143248E0	7.876923561E0
1.996268300E-2	-2.535459518E0	3.236960649E0	7.912836552E0
2.174850000E-2	-2.487575531E0	3.229778051E0	7.963114738E0
2.399291400E-2	-2.425326347E0	3.213018656E0	8.018181801E0
2.516227000E-2	-2.360682964E0	3.191470861E0	8.080430984E0
2.805060700E-2	-2.298433542E0	3.160346270E0	8.169015884E0
2.998500000E-2	-2.217030764E0	3.131615877E0	8.271966934E0
3.208573100E-2	-2.138022184E0	3.117250681E0	8.384494781E0
3.325580800E-2	-2.056619167E0	3.105279684E0	8.497021675E0
3.613146200E-2	-1.956062794E0	3.076549292E0	8.609549522E0
3.796996200E-2	-1.841141105E0	3.040636063E0	8.719682693E0
3.992600000E-2	-1.721431017E0	2.999934673E0	8.839392662E0
4.136430800E-2	-1.594538331E0	2.949656487E0	8.944737434E0
4.410111600E-2	-1.446097851E0	2.899378300E0	9.045293808E0
4.605792300E-2	-1.290474772E0	2.839523315E0	9.136273384E0
4.828383700E-2	-1.134851575E0	2.796427488E0	9.215282440E0
4.957880800E-2	-9.935936928E-1	2.753331900E0	9.282320023E0
5.227419300E-2	-8.547300100E-1	2.698265314E0	9.356540680E0
5.405280800E-2	-7.302315235E-1	2.655169725E0	9.416395187E0
5.627414500E-2	-6.224924326E-1	2.638410330E0	9.449913979E0
5.747319300E-2	-5.267243981E-1	2.650381327E0	9.471462250E0
6.033118300E-2	-4.405331016E-1	2.664746523E0	9.497797966E0
6.212588500E-2	-3.711012602E-1	2.691082716E0	9.512163162E0
6.437641400E-2	-3.208230138E-1	2.736572504E0	9.514557838E0
6.557942300E-2	-2.801215947E-1	2.801215887E0	9.519346237E0
6.843345300E-2	-2.394201756E-1	2.875436306E0	9.545681953E0
7.031788500E-2	-2.035071403E-1	2.968810081E0	9.591172218E0
7.246988500E-2	-1.675941199E-1	3.052607059E0	9.629479408E0
7.364250000E-2	-1.436520964E-1	3.119644880E0	9.665391922E0
7.653099100E-2	-1.364694983E-1	3.174711466E0	9.710882187E0
7.831938500E-2	-1.388636976E-1	3.227383852E0	9.749189377E0
8.029203900E-2	-1.340752989E-1	3.270479441E0	9.780313492E0
8.173753900E-2	-1.029506698E-1	3.306392431E0	9.830592155E0
8.430988500E-2	-6.464344263E-2	3.323152065E0	9.861717224E0
8.641961600E-2	-7.182604820E-2	3.282450438E0	9.811438560E0
8.866226000E-2	-9.576806426E-2	3.229778051E0	9.758766174E0
8.996250000E-2	-1.460463107E-1	3.239354849E0	9.660603523E0
9.266468300E-2	-2.154781520E-1	3.270479441E0	9.538499832E0
9.445038500E-2	-1.628057212E-1	3.129221678E0	9.435548782E0
9.665929900E-2	3.064578176E-1	2.456450939E0	9.181763649E0
9.784727000E-2	6.512228847E-1	1.810016513E0	8.808267593E0
1.006926930E-1	5.482721925E-1	1.728613615E0	8.532935143E0
1.025483850E-1	1.316810995E-1	2.166752577E0	8.180987358E0
1.047469520E-1	-2.250549644E-1	2.432508945E0	7.671022415E0
1.059241930E-1	-3.591302633E-1	2.281674147E0	7.433996201E0
1.087844620E-1	-3.136404157E-1	1.898601890E0	7.613561630E0
1.107377310E-1	-3.734954596E-1	1.594538331E0	8.130708694E0
1.128587600E-1	-5.961562395E-1	1.462857246E0	8.657433510E0
1.140520390E-1	-8.164227605E-1	1.417367458E0	8.949525833E0
1.169149140E-1	-9.097966552E-1	1.323993564E0	8.966285706E0
1.187295770E-1	-9.888052940E-1	1.192312479E0	8.805873871E0
1.206605000E-1	-1.125274777E0	1.084573388E0	8.626308441E0
1.221478850E-1	-1.268926859E0	1.029506683E0	8.475474358E0
1.249258080E-1	-1.355118155E0	1.007958889E0	8.336610794E0
1.268135390E-1	-1.371877551E0	1.019929886E0	8.197746277E0
1.290283850E-1	-1.359906554E0	1.046266198E0	8.075642586E0
1.303255000E-1	-1.331176162E0	1.079784989E0	7.984662533E0
1.330249520E-1	-1.302445769E0	1.113303781E0	7.927201748E0
1.348228460E-1	-1.300051570E0	1.158793569E0	7.898471355E0
1.370361450E-1	-1.304839969E0	1.204283476E0	7.903259754E0
1.382062310E-1	-1.328781962E0	1.242590666E0	7.953537941E0
1.410636540E-1	-1.405396342E0	1.271321058E0	8.054094315E0
1.429071160E-1	-1.546654344E0	1.283292055E0	8.190564156E0
1.451234910E-1	-1.728613615E0	1.285686255E0	8.362946510E0
1.462933080E-1	-1.936909199E0	1.290474772E0	8.556877136E0
1.491794230E-1	-2.154781580E0	1.292868972E0	8.777143478E0
1.510744620E-1	-2.353500366E0	1.297657371E0	9.006986618E0
1.532173080E-1	-2.489969730E0	1.302445769E0	9.200917244E0
1.544166930E-1	-2.537853718E0	1.307234168E0	9.318233490E0
1.572725770E-1	-2.482787132E0	1.304839969E0	9.356540680E0
1.591132700E-1	-2.343923569E0	1.304839969E0	9.337387085E0
1.610546930E-1	-2.145204782E0	1.304839969E0	9.275136948E0
1.624957700E-1	-1.889025092E0	1.316810966E0	9.220070839E0
1.650850000E-1	-1.625662923E0	1.331176162E0	9.193734169E0
1.671803080E-1	-1.398213744E0	1.352723956E0	9.212887764E0
1.694101440E-1	-1.247379065E0	1.393425345E0	9.265560150E0
1.707180770E-1	-1.134851575E0	1.453280449E0	9.346963882E0
1.734068750E-1	-9.959878922E-1	1.472434044E0	9.476250648E0
1.751929230E-1	-8.283938169E-1	1.441309452E0	9.667786598E0
1.774023750E-1	-6.536170840E-1	1.405396342E0	9.883264542E0
1.785758460E-1	-4.955997467E-1	1.414973259E0	1.003170490E1
1.814594910E-1	-3.495534360E-1	1.414973259E0	1.007001209E1
1.832922700E-1	-2.082955539E-1	1.419761658E0	9.962273598E0
1.855050670E-1	-1.340752989E-1	1.584961534E0	9.679757118E0
1.867052310E-1	-7.182604820E-2	1.738190413E0	9.504981041E0
1.895600390E-1	-1.197100803E-2	1.781286120E0	9.555258751E0
1.914817690E-1	3.112462163E-2	1.790862918E0	9.775525093E0
1.935950000E-1	5.027823523E-2	1.783680320E0	1.004128170E1
1.947788080E-1	6.943184882E-2	1.759738207E0	1.025436592E1
1.976282310E-1	1.197100878E-1	1.723825216E0	1.046505547E1
1.994651540E-1	1.651999205E-1	1.723825216E0	1.057758331E1
2.013874620E-1	1.987187415E-1	1.750161409E0	1.067095661E1
2.028858080E-1	1.843535304E-1	1.795651317E0	1.076672459E1
2.056411540E-1	1.149216816E-1	1.879448295E0	1.089122391E1
2.075723460E-1	2.633621916E-2	1.965639591E0	1.095586681E1
2.097669230E-1	-5.267243832E-2	2.032677174E0	1.092234802E1
2.111094620E-1	-1.316810995E-1	2.073378563E0	1.087925243E1
2.137834230E-1	-2.370259613E-1	2.106897593E0	1.092474270E1
2.156006930E-1	-3.375824392E-1	2.130839586E0	1.102051067E1
2.177866930E-1	-4.189853072E-1	2.152387381E0	1.112346077E1
2.189800000E-1	-4.572925270E-1	2.171540976E0	1.119289303E1
2.218375770E-1	-4.548983276E-1	2.154781580E0	1.121204662E1
2.236621930E-1	-4.118026793E-1	2.102109194E0	1.121444035E1
2.258806060E-1	-3.591302633E-1	2.035071373E0	1.124556541E1
2.270824230E-1	-2.873041928E-1	1.958456993E0	1.128626728E1
2.299246540E-1	-1.532289088E-1	1.869871497E0	1.126232433E1
2.318875770E-1	2.633621916E-2	1.750161409E0	1.115458584E1
2.339290770E-1	2.202665508E-1	1.630451322E0	1.102290440E1
2.351288080E-1	4.357447028E-1	1.515529633E0	1.091277122E1
2.379950390E-1	6.823474765E-1	1.369483352E0	1.084094524E1
2.398013080E-1	9.409212470E-1	1.209071875E0	1.081700325E1
2.417643460E-1	1.173158884E0	1.039083481E0	1.077630138E1
2.432512690E-1	1.379060149E0	8.475474119E-1	1.073560047E1
2.457649230E-1	1.563413739E0	6.655880809E-1	1.074278259E1
2.478933080E-1	1.704671621E0	4.979939461E-1	1.074517727E1
2.501045390E-1	1.798045516E0	3.567360640E-1	1.066137981E1
2.514417310E-1	1.836352706E0	2.418143749E-1	1.048660374E1
2.541119230E-1	1.821987510E0	1.675941199E-1	1.025675964E1
2.558939620E-1	1.762132406E0	1.149216816E-1	1.000058079E1
2.581289620E-1	1.666364431E0	8.140286058E-2	9.732429504E0
2.593098850E-1	1.541865945E0	5.985504389E-2	9.457097054E0
2.621824620E-1	1.398213744E0	5.985504389E-2	9.169792175E0
2.639856540E-1	1.218648672E0	6.943184882E-2	8.865729332E0
2.662299130E-1	1.005564690E0	9.337386489E-2	8.556877136E0
2.674476160E-1	7.709329724E-1	1.197100878E-1	8.274360657E0
2.702506930E-1	5.171475410E-1	1.628057212E-1	8.039729118E0
2.721820770E-1	2.609679997E-1	1.963245422E-1	7.836222172E0
2.742899230E-1	-4.788403399E-3	2.250549644E-1	7.668628216E0
2.755554230E-1	-2.849099934E-1	2.513911724E-1	7.551311970E0
2.783570390E-1	-5.626373887E-1	2.657563984E-1	7.493851185E0
2.801905770E-1	-8.499416113E-1	2.873041928E-1	7.489062786E0
2.821595390E-1	-1.134851575E0	3.040636182E-1	7.544129372E0
2.835955770E-1	-1.395819545E0	3.064578176E-1	7.647080421E0
2.863720390E-1	-1.620874524E0	2.920926213E-1	7.771578789E0
2.882773460E-1	-1.810016513E0	2.657563984E-1	7.896077156E0
2.904873460E-1	-1.956062794E0	2.466027737E-1	8.010998726E0
2.918357690E-1	-2.061407566E0	2.322375625E-1	8.118738174E0
2.945122980E-1	-2.133233786E0	2.154781520E-1	8.214506149E0
2.963226160E-1	-2.185906172E0	1.843535304E-1	8.293514252E0
2.984811540E-1	-2.221819162E0	1.340752989E-1	8.358158112E0
2.996890770E-1	-2.317587137E0	-3.830722719E-2	8.386888504E0
3.025648750E-1	-2.454056740E0	-2.849099934E-1	8.413225174E0
3.043885770E-1	-2.571372509E0	-4.548983276E-1	8.815450668E0
3.066100290E-1	-2.839523315E0	-4.405331016E-1	1.047702694E1
3.077787690E-1	-3.490746021E0	-2.489969730E-1	1.290714169E1
3.106660670E-1	-3.782838583E0	-2.418143749E-1	1.274433517E1
3.125921160E-1	-2.815581083E0	-5.195417404E-1	1.032858658E1
3.146858460E-1	-1.754949808E0	-5.291185975E-1	8.619126320E0
3.158879620E-1	-1.244984865E0	-2.513911724E-1	8.240841866E0
3.187440770E-1	-1.288080573E0	-6.703764945E-2	8.748413086E0
3.205628850E-1	-1.572990537E0	0.000000000E0	9.698910713E0
3.225101540E-1	-1.898601890E0	-2.633621916E-2	1.047463226E1
3.239502690E-1	-2.173935175E0	-1.675941199E-1	1.061828423E1
3.264805770E-1	-2.310404539E0	-3.232172430E-1	1.037886429E1
3.286898460E-1	-2.331952572E0	-4.165911078E-1	1.022084713E1
3.308897310E-1	-2.305616140E0	-4.525041282E-1	1.032858658E1
3.321942310E-1	-2.284068346E0	-4.453215301E-1	1.057997704E1
3.348857690E-1	-2.236184359E0	-4.094084799E-1	1.085291672E1
3.366720000E-1	-2.114080191E0	-3.447650373E-1	1.109712505E1
3.388876920E-1	-1.929726601E0	-2.609679997E-1	1.132217979E1
3.401202690E-1	-1.685518026E0	-1.604115069E-1	1.153286934E1
3.429136160E-1	-1.386242747E0	-5.746084079E-2	1.169088650E1
3.447562310E-1	-1.046266198E0	2.633621916E-2	1.174116516E1
3.469732590E-1	-6.775590777E-1	1.077390760E-1	1.162863731E1
3.481666160E-1	-2.849099934E-1	2.011129409E-1	1.138203526E1
3.509926920E-1	1.580173075E-1	2.944868207E-1	1.104445267E1
3.530566820E-1	6.464344859E-1	3.998316824E-1	1.065180302E1
3.552173460E-1	1.173158884E0	4.979939461E-1	1.028070164E1
3.562663460E-1	1.582567334E0	6.248866320E-1	1.007240677E1
3.591242690E-1	2.032677174E0	7.110779285E-1	1.023281765E1
3.609523850E-1	2.758120298E0	6.727706790E-1	1.053927612E1
3.628577310E-1	3.459621429E0	5.530605912E-1	1.063264942E1
3.643520000E-1	4.151545525E0	3.519476354E-1	1.046984386E1
3.671329230E-1	4.900930882E0	8.619125932E-2	1.013465595E1
3.690333080E-1	5.734113216E0	-2.561795712E-1	9.677363396E0
3.712234230E-1	6.452373505E0	-6.368576288E-1	9.124302864E0
3.725716160E-1	6.756437302E0	-8.810662031E-1	8.801085472E0
3.752166540E-1	6.689399719E0	-9.385270476E-1	8.889671326E0
3.770571540E-1	6.459556103E0	-8.858546019E-1	9.222464561E0
3.792484900E-1	6.239289761E0	-8.355764151E-1	9.579200745E0
3.804634620E-1	6.083666325E0	-8.044517636E-1	9.842563629E0
3.832746160E-1	5.983109951E0	-7.613561153E-1	1.001494598E1
3.850998850E-1	5.959167957E0	-7.254431248E-1	1.011310768E1
3.873356440E-1	5.918466568E0	-6.943184733E-1	1.012747288E1
3.885347690E-1	5.544970989E0	-5.698199868E-1	1.009156036E1
3.913652310E-1	4.070142746E0	-6.224924326E-2	1.001973438E1
3.933185770E-1	8.451532125E-1	1.086967587E0	9.832986832E0
3.954276540E-1	-3.143586874E0	2.540247917E0	9.540893555E0
3.966260000E-1	-5.726930618E0	3.581725836E0	9.373299599E0
3.994869130E-1	-5.750872612E0	3.823540211E0	9.464279175E0
4.012868850E-1	-4.316745758E0	3.639186621E0	9.696516991E0
4.032653850E-1	-3.327940464E0	3.722983599E0	9.797073364E0
4.047326540E-1	-3.390189648E0	4.209006786E0	9.600749016E0
4.072181540E-1	-3.986345768E0	4.888959885E0	9.126696587E0
4.096059230E-1	-4.110844135E0	5.518634796E0	8.410830498E0
4.116166920E-1	-2.777273893E0	5.216965675E0	8.197746277E0
4.129486150E-1	-5.793967843E-1	4.414907932E0	8.159439087E0
4.156135670E-1	1.740584612E0	3.438073635E0	8.157045364E0
4.173826920E-1	3.620033026E0	2.545036316E0	8.101978302E0
4.196087590E-1	4.876988888E0	1.853112102E0	7.975085735E0
4.207896920E-1	5.293580055E0	1.592144132E0	7.893682957E0
4.236645390E-1	5.928043365E0	1.072602391E0	7.632715225E0
4.254741920E-1	6.019022942E0	8.954314590E-1	7.489062786E0
4.277088460E-1	5.990292549E0	8.355764151E-1	7.388506413E0
4.289438850E-1	5.916072369E0	8.762778044E-1	7.307103634E0
4.317663360E-1	5.849034786E0	9.888052940E-1	7.220912457E0
4.336506920E-1	5.829881191E0	1.132457376E0	7.113173485E0
4.357714230E-1	5.858611584E0	1.295263171E0	6.969521046E0
4.370022310E-1	5.923254967E0	1.470039845E0	6.782773495E0
4.398638080E-1	6.026205540E0	1.647210717E0	6.581660271E0
4.416972690E-1	6.124367714E0	1.841141105E0	6.404489517E0
4.436001920E-1	6.208165169E0	2.025494576E0	6.289567947E0
4.450951150E-1	6.251260757E0	2.214636564E0	6.251260757E0
4.478665770E-1	6.232107162E0	2.413355350E0	6.251260757E0
4.497742690E-1	6.165069580E0	2.614468336E0	6.277596951E0
4.519968740E-1	6.098031521E0	2.796427488E0	6.318298340E0
4.533125770E-1	6.102819920E0	2.959233284E0	6.385335922E0
4.559997200E-1	6.169857979E0	3.090914488E0	6.473921299E0
4.577616540E-1	6.241683960E0	3.193865061E0	6.581660271E0
4.599947970E-1	6.303933144E0	3.248931646E0	6.715735912E0
4.611688460E-1	6.361393929E0	3.275267839E0	6.904877663E0
4.640512590E-1	6.428431511E0	3.287238836E0	7.146692276E0
4.658561920E-1	6.514622688E0	3.282450438E0	7.436390400E0
4.680817970E-1	6.605602264E0	3.270479441E0	7.747636795E0
4.692746920E-1	6.675034523E0	3.251325846E0	8.051700592E0
4.721363460E-1	6.715735912E0	3.217807055E0	8.324639320E0
4.740730770E-1	6.722918510E0	3.153163671E0	8.537723541E0
4.761601430E-1	6.720524311E0	3.069366693E0	8.676587105E0
4.774098460E-1	6.708553314E0	2.987963676E0	8.731653214E0
4.801864230E-1	6.694188118E0	2.896984100E0	8.707711220E0
4.820033850E-1	6.672640324E0	2.801215887E0	8.645462036E0
4.839580390E-1	6.617573261E0	2.729389906E0	8.573636055E0
4.854174620E-1	6.538564682E0	2.710236311E0	8.530540466E0
4.879755770E-1	6.423643112E0	2.729389906E0	8.504204750E0
4.901100770E-1	6.299144745E0	2.758120298E0	8.475474358E0
4.923338360E-1	6.191405773E0	2.777273893E0	8.441955566E0
4.936710000E-1	6.143521786E0	2.700659513E0	8.327033043E0
4.963271820E-1	6.184223175E0	2.564189911E0	8.118738174E0
4.981003080E-1	6.248866558E0	2.509123325E0	7.958326340E0
5.003210390E-1	6.260837555E0	2.463633537E0	7.807491779E0
5.016349230E-1	6.212953568E0	2.389413357E0	7.613561630E0
5.043938740E-1	6.141127586E0	2.327163935E0	7.388506413E0
5.061785000E-1	6.047753334E0	2.276885748E0	7.129932880E0
5.084224230E-1	5.956773758E0	2.217030764E0	6.830657482E0
5.096151920E-1	5.889736176E0	2.109291792E0	6.483498096E0
5.124805660E-1	5.849034786E0	1.965639591E0	6.121973515E0
5.144411540E-1	5.822698593E0	1.872265697E0	5.803544998E0
5.165163460E-1	5.789179802E0	1.845929503E0	5.585672379E0
5.177006150E-1	5.712565422E0	1.884236693E0	5.442020416E0
5.205766050E-1	5.604825974E0	1.977610588E0	5.358223438E0
5.224336540E-1	5.477933407E0	2.185906172E0	5.303156853E0
5.243219230E-1	5.506663799E0	2.308010340E0	5.288791656E0
5.258022690E-1	5.650316238E0	2.401384354E0	5.264849663E0
5.285713850E-1	5.870582581E0	2.473210335E0	5.243301868E0
5.304886150E-1	6.112396717E0	2.542642117E0	5.231330872E0
5.326780770E-1	6.351817131E0	2.616862535E0	5.255272865E0
5.340458850E-1	6.586448669E0	2.700659513E0	5.310339451E0
5.366996050E-1	6.835445881E0	2.784456491E0	5.415684223E0
5.384533460E-1	7.098807812E0	2.868253708E0	5.564124584E0
5.406656920E-1	7.314286232E0	2.961627483E0	5.753266811E0
5.418711920E-1	7.455543995E0	3.074155092E0	5.975927353E0
5.447502580E-1	7.503427982E0	3.189076662E0	6.220136166E0
5.465581540E-1	7.462726593E0	3.280056238E0	6.469132900E0
5.487917310E-1	7.378929615E0	3.339911461E0	6.691793919E0
5.499650000E-1	7.297526836E0	3.347094059E0	6.890512466E0
5.528504510E-1	7.216124058E0	3.303998232E0	7.077260017E0
5.547660770E-1	7.144298077E0	3.229778051E0	7.259219646E0
5.568570380E-1	7.086836815E0	3.114856482E0	7.429207802E0
5.580604230E-1	7.043741226E0	2.964021683E0	7.587224960E0
5.609462970E-1	7.026981831E0	2.808398485E0	7.757213593E0
5.627668080E-1	7.050923824E0	2.643198729E0	7.927201748E0
5.647105770E-1	7.108384609E0	2.461239338E0	8.078036308E0
5.661702690E-1	7.175422668E0	2.279279947E0	8.192957878E0
5.687170380E-1	7.240066051E0	2.111685991E0	8.252813339E0
5.708835380E-1	7.283161640E0	1.987187386E0	8.264783859E0
5.730645770E-1	7.304709435E0	1.905784607E0	8.243236542E0
5.744231920E-1	7.311892033E0	1.855506301E0	8.200140953E0
5.770676150E-1	7.321468830E0	1.831564307E0	8.142680168E0
5.788772310E-1	7.350199223E0	1.819593310E0	8.054094315E0
5.810695770E-1	7.426813602E0	1.802833915E0	7.951143742E0
5.822670380E-1	7.548917770E0	1.790862918E0	7.819462776E0
5.851060770E-1	7.685387611E0	1.798045516E0	7.668628216E0
5.869441150E-1	7.817068577E0	1.824381709E0	7.477091789E0
5.891570660E-1	7.922413349E0	1.869871497E0	7.266402245E0
5.903235000E-1	7.984662533E0	1.934514999E0	7.084442616E0
5.932098080E-1	7.996633530E0	2.042253971E0	6.979097843E0
5.951436540E-1	7.963114738E0	2.188300371E0	6.938396454E0
5.972653850E-1	7.941566944E0	2.343923569E0	6.890512466E0
5.984384620E-1	7.948749542E0	2.487575531E0	6.813898087E0
6.012835770E-1	7.975085735E0	2.609679937E0	6.715735912E0
6.031421920E-1	8.025363922E0	2.717418909E0	6.579266071E0
6.050870770E-1	8.075642586E0	2.806004286E0	6.428431511E0
6.065509620E-1	8.056488991E0	2.889801502E0	6.306327343E0
6.094060660E-1	7.955932140E0	2.983175278E0	6.222530365E0
6.112158460E-1	7.869740963E0	3.052607059E0	6.121973515E0
6.134304620E-1	7.800309181E0	3.066972494E0	5.990292549E0
6.147591540E-1	7.682993412E0	3.038241863E0	5.877765179E0
6.174192690E-1	7.532158375E0	2.971204281E0	5.789179802E0
6.192416920E-1	7.383718014E0	2.875436306E0	5.736507416E0
6.214109610E-1	7.283161640E0	2.743755102E0	5.691017628E0
6.226380380E-1	7.316680431E0	2.557007313E0	5.616796970E0
6.254686920E-1	7.496245384E0	2.346317768E0	5.554547787E0
6.273650000E-1	7.740454197E0	2.123656988E0	5.576095581E0
6.295262970E-1	7.936778545E0	1.944091797E0	5.662287235E0
6.307246150E-1	8.018181801E0	1.833958507E0	5.772420406E0
6.335596150E-1	8.008605003E0	1.800439715E0	5.923254967E0
6.356108350E-1	7.900865555E0	1.826775908E0	6.239289761E0
6.376215270E-1	7.812280178E0	1.853112102E0	6.476315498E0
6.388432690E-1	7.735665798E0	1.872265697E0	6.706159115E0
6.416780270E-1	7.709329605E0	1.857900500E0	6.907271862E0
6.436391920E-1	7.788338184E0	1.800439715E0	7.012616634E0
6.455544610E-1	7.888894558E0	1.740584612E0	7.065289021E0
6.469492310E-1	7.970297337E0	1.699883223E0	7.137115479E0
6.495655000E-1	8.082824707E0	1.644816518E0	7.196970463E0
6.516123080E-1	8.267178535E0	1.544260144E0	7.175422668E0
6.538091430E-1	8.429984093E0	1.441309452E0	7.139509678E0
6.552309230E-1	8.499416351E0	1.376665950E0	7.156269073E0
6.578019500E-1	8.513781548E0	1.347935557E0	7.175422668E0
6.597956040E-1	8.554482460E0	1.321599364E0	7.187393665E0
6.617971040E-1	8.561665535E0	1.304839969E0	7.220912457E0
6.630902690E-1	8.540117264E0	1.300051570E0	7.249642849E0
6.658535660E-1	8.532935143E0	1.278503656E0	7.218518257E0
6.677463460E-1	8.523358345E0	1.256955862E0	7.129932880E0
6.698989890E-1	8.449137688E0	1.266532660E0	7.058106422E0
6.712128460E-1	8.315062523E0	1.321599364E0	7.019799232E0
6.739557960E-1	8.228871346E0	1.371877551E0	6.919242859E0
6.759836920E-1	8.216899872E0	1.403002143E0	6.701370716E0
6.779962960E-1	8.224082947E0	1.441309452E0	6.461950302E0
6.792016540E-1	8.231265068E0	1.493981838E0	6.272808552E0
6.820532960E-1	8.236053467E0	1.558625340E0	6.100425720E0
6.840822960E-1	8.281543732E0	1.616086125E0	5.894524574E0
6.858211920E-1	8.362946510E0	1.663970232E0	5.712565422E0
6.872909230E-1	8.403648376E0	1.723825216E0	5.628767967E0
6.901406420E-1	8.410830498E0	1.800439715E0	5.609614372E0
6.920018850E-1	8.425195694E0	1.872265697E0	5.583278179E0
6.941875660E-1	8.475474358E0	1.884236693E0	5.547365189E0
6.957049230E-1	8.511386871E0	1.884236693E0	5.576095581E0
