"Time (s)"	"Acceleration x (m/s^2)"	"Acceleration y (m/s^2)"	"Acceleration z (m/s^2)"
8.036961000E-3	-5.650315881E-1	4.735731125E0	7.663839817E0
1.092161300E-2	-5.674257874E-1	4.750096321E0	7.671022415E0
1.218303800E-2	-5.530605912E-1	4.764461517E0	7.680599213E0
1.501384400E-2	-5.339069963E-1	4.766855717E0	7.685387611E0
1.632711500E-2	-5.123591423E-1	4.764461517E0	7.692570210E0
1.910599800E-2	-4.740519226E-1	4.762067318E0	7.704541206E0
2.079496100E-2	-3.711012602E-1	4.766855717E0	7.728483200E0
2.313045900E-2	-3.016694188E-1	4.759673119E0	7.730877399E0
2.471300000E-2	-2.154781520E-1	4.752490520E0	7.726089001E0
2.714845900E-2	-1.316810995E-1	4.747702122E0	7.735665798E0
2.837192300E-2	-5.027823523E-2	4.745307922E0	7.757213593E0
3.120592100E-2	3.830722719E-2	4.745307922E0	7.778761387E0
3.284188400E-2	1.125274822E-1	4.745307922E0	7.802703381E0
3.528422800E-2	1.747767180E-1	4.742913723E0	7.831433773E0
3.657853800E-2	2.274491638E-1	4.726154327E0	7.874529362E0
3.934145900E-2	2.825157940E-1	4.721365929E0	7.905653954E0
4.102515400E-2	3.399766386E-1	4.723760128E0	7.936778545E0
4.322719200E-2	3.854664862E-1	4.718971729E0	7.970297337E0
4.465769200E-2	4.261679053E-1	4.707000732E0	8.006210327E0
4.744915200E-2	4.668693244E-1	4.704606533E0	8.046912193E0
4.896676900E-2	5.003881454E-1	4.690241337E0	8.075642586E0
5.149776700E-2	5.267243981E-1	4.680664539E0	8.090007782E0
5.271096100E-2	5.386953950E-1	4.687847137E0	8.104372978E0
5.555449800E-2	5.267243981E-1	4.692635536E0	8.109161377E0
5.719538400E-2	5.099649429E-1	4.709394932E0	8.111555099E0
5.963249800E-2	4.955997467E-1	4.721365929E0	8.116343498E0
6.088588400E-2	4.812345505E-1	4.738125324E0	8.123526573E0
6.368911300E-2	4.740519226E-1	4.771644115E0	8.142680168E0
6.529380700E-2	4.668693244E-1	4.812345505E0	8.176198959E0
6.771872800E-2	4.596867263E-1	4.853046894E0	8.226476669E0
6.893500000E-2	4.381389022E-1	4.891354084E0	8.279149055E0
7.177511300E-2	4.118026793E-1	4.934449673E0	8.329427719E0
7.338011500E-2	3.950432837E-1	5.025429249E0	8.418013573E0
7.583865100E-2	3.926490843E-1	5.051765442E0	8.456320763E0
7.706057700E-2	3.926490843E-1	5.094861031E0	8.535328865E0
7.989622800E-2	3.854664862E-1	5.123591423E0	8.626308441E0
8.159292300E-2	3.734954596E-1	5.152322292E0	8.808267593E0
8.380438400E-2	3.687070608E-1	5.161899090E0	8.880094528E0
8.519450000E-2	3.519476354E-1	5.149928093E0	9.021351814E0
8.802015100E-2	3.423708379E-1	5.094861031E0	9.145850182E0
8.927969200E-2	3.543418646E-1	5.013458252E0	9.255983353E0
9.211299700E-2	4.070142806E-1	4.841075897E0	9.411606789E0
9.337823000E-2	4.357447028E-1	4.718971729E0	9.531316757E0
9.620553600E-2	4.405331016E-1	4.584896088E0	9.646238327E0
9.779550000E-2	4.189853072E-1	4.446032524E0	9.749189377E0
1.002693440E-1	3.591302633E-1	4.323928356E0	9.854534149E0
1.014907300E-1	2.609679997E-1	4.223371983E0	9.957485199E0
1.043272280E-1	1.364694983E-1	4.141968727E0	1.003649330E1
1.059496150E-1	1.675941236E-2	4.094084740E0	1.007240677E1
1.083740360E-1	-7.182604820E-2	4.094084740E0	1.006043530E1
1.095958070E-1	-1.364694983E-1	4.110844135E0	9.991003990E0
1.124316510E-1	-1.604115069E-1	4.103661537E0	9.864110947E0
1.140619610E-1	-1.149216816E-1	4.062960148E0	9.706093788E0
1.164958440E-1	-9.576806799E-3	4.010287762E0	9.540893555E0
1.177261150E-1	1.412578970E-1	3.952826977E0	9.411606789E0
1.205531130E-1	3.184288144E-1	3.883395195E0	9.320627213E0
1.222510000E-1	4.932055473E-1	3.804386616E0	9.277531624E0
1.244691150E-1	6.488286853E-1	3.701435804E0	9.287108421E0
1.258500770E-1	7.781155705E-1	3.562572241E0	9.356540680E0
1.286704970E-1	8.690952063E-1	3.404554844E0	9.476250648E0
1.301654610E-1	9.217676520E-1	3.246537447E0	9.617507935E0
1.327002280E-1	9.481038451E-1	3.122039080E0	9.749189377E0
1.339235770E-1	9.624691010E-1	3.026270866E0	9.864110947E0
1.367578050E-1	9.552865028E-1	2.983175278E0	9.962273598E0
1.383601530E-1	9.193734527E-1	2.999934673E0	9.986215591E0
1.407889200E-1	9.265560508E-1	2.971204281E0	1.001015759E1
1.420195770E-1	9.576807022E-1	2.918531895E0	1.007240677E1
1.448454200E-1	9.840168953E-1	2.873042107E0	1.012747288E1
1.464506530E-1	9.911994934E-1	2.815581083E0	1.011550236E1
1.488753050E-1	9.959878922E-1	2.789244890E0	1.008437729E1
1.501060000E-1	9.935936928E-1	2.760514498E0	1.000776291E1
1.529319590E-1	9.385270476E-1	2.736572504E0	9.926360130E0
1.547685000E-1	8.307880163E-1	2.604891539E0	9.825803757E0
1.570091130E-1	8.044517636E-1	2.549824715E0	9.792284966E0
1.582335000E-1	7.589619160E-1	2.406172752E0	9.715670586E0
1.610655360E-1	6.991068721E-1	2.188300371E0	9.612719536E0
1.627483460E-1	5.075707436E-1	1.798045516E0	9.399636269E0
1.649582300E-1	3.088520169E-1	1.604115129E0	9.263166428E0
1.663510000E-1	9.337386489E-2	1.496376038E0	9.179368973E0
1.691713820E-1	-1.005564705E-1	1.491587639E0	9.129091263E0
1.704302690E-1	-2.753331959E-1	1.606509328E0	9.057265282E0
1.732631130E-1	-4.405331016E-1	1.831564307E0	9.002198219E0
1.745171920E-1	-6.057330370E-1	2.114080191E0	9.030928612E0
1.773545740E-1	-7.422025204E-1	2.427720547E0	9.172186852E0
1.790119230E-1	-7.661445141E-1	2.755726099E0	9.392453194E0
1.814327660E-1	-7.613561153E-1	3.062183857E0	9.583989143E0
1.826650000E-1	-8.164227605E-1	3.313575268E0	9.694122314E0
1.854902280E-1	-9.193734527E-1	3.529053211E0	9.789890289E0
1.870934230E-1	-1.019929886E0	3.744531393E0	9.883264542E0
1.895219200E-1	-1.094150186E0	3.926490784E0	9.945513725E0
1.907790000E-1	-1.132457376E0	4.058171749E0	9.933543205E0
1.935794200E-1	-1.125274777E0	4.146757126E0	9.859322548E0
1.951741530E-1	-1.096544385E0	4.213795185E0	9.722852707E0
1.976426890E-1	-1.051054597E0	4.259284973E0	9.562441826E0
1.988526530E-1	-9.888052940E-1	4.290409565E0	9.402029991E0
2.016997660E-1	-9.169792533E-1	4.309563160E0	9.239224434E0
2.033896920E-1	-8.307880163E-1	4.304774761E0	8.995016098E0
2.056826150E-1	-8.068459630E-1	4.295197964E0	8.904036522E0
2.069909230E-1	-7.685387731E-1	4.276044369E0	8.707711220E0
2.098206890E-1	-7.398083210E-1	4.242525578E0	8.504204750E0
2.114341920E-1	-7.254431248E-1	4.194641590E0	8.283937454E0
2.138999590E-1	-7.350199223E-1	4.144362926E0	8.063671112E0
2.151490380E-1	-7.733271718E-1	4.096478939E0	7.838616371E0
2.179571890E-1	-8.092401624E-1	4.039018154E0	7.608773232E0
2.196902690E-1	-8.571242094E-1	3.960009575E0	7.225700855E0
2.220206120E-1	-8.690952063E-1	3.938461781E0	7.103596210E0
2.232339610E-1	-9.002198577E-1	3.900154591E0	6.873753071E0
2.260780350E-1	-9.552865028E-1	3.883395195E0	6.675034523E0
2.277735380E-1	-1.063025594E0	3.904942989E0	6.447585106E0
2.301246510E-1	-1.122880578E0	3.948038578E0	6.335057735E0
2.313478070E-1	-1.168370485E0	4.003105164E0	6.239289761E0
2.341818430E-1	-1.209071875E0	4.058171749E0	6.148310184E0
2.358954610E-1	-1.244984865E0	4.108449936E0	6.064512730E0
2.382457660E-1	-1.280897856E0	4.163516521E0	5.995080948E0
2.394850380E-1	-1.326387763E0	4.218583584E0	5.944802761E0
2.423028050E-1	-1.364694953E0	4.268861771E0	5.896918774E0
2.440478460E-1	-1.371877551E0	4.304774761E0	5.849034786E0
2.462104610E-1	-1.359906554E0	4.323928356E0	5.789179802E0
2.476326150E-1	-1.335964561E0	4.323928356E0	5.726930618E0
2.504196120E-1	-1.314416766E0	4.307168961E0	5.671864033E0
2.518459230E-1	-1.285686255E0	4.278438568E0	5.628767967E0
2.545149970E-1	-1.254561663E0	4.240131378E0	5.588066578E0
2.558596530E-1	-1.216254473E0	4.180276394E0	5.547365189E0
2.586069580E-1	-1.168370485E0	4.094084740E0	5.521028996E0
2.604584610E-1	-1.058237195E0	3.914519787E0	5.470750809E0
2.626712660E-1	-5.937620401E-1	3.404554844E0	5.020640850E0
2.638901530E-1	-1.101332754E-1	2.777273893E0	4.137180328E0
2.667286890E-1	4.548983276E-2	2.327163935E0	3.363853455E0
2.684007300E-1	3.591302410E-2	1.968033791E0	2.999934673E0
2.707601510E-1	-2.394201700E-3	1.580173135E0	3.117250681E0
2.720352690E-1	-8.140286058E-2	1.122880578E0	3.720589399E0
2.748173430E-1	-2.202665508E-1	5.602431893E-1	4.778826714E0
2.764733460E-1	-5.051765442E-1	-5.841852427E-1	7.343016624E0
2.788963810E-1	-6.368576288E-1	-1.019929886E0	8.441955566E0
2.801019230E-1	-9.313444495E-1	-1.841141105E0	1.076672459E1
2.829528810E-1	-1.142034173E0	-2.437297344E0	1.270602798E1
2.849993840E-1	-8.571242094E-1	-2.748543501E0	1.346977901E1
2.869821920E-1	-5.937620401E-1	-2.715024710E0	1.308910084E1
2.884419230E-1	2.394201607E-2	-2.516305923E0	1.172440529E1
2.910582280E-1	5.339069963E-1	-2.205059767E0	1.008916569E1
2.926547300E-1	6.775590777E-1	-1.379060149E0	8.025363922E0
2.951308040E-1	4.141969085E-1	-7.805097699E-1	7.070077419E0
2.963607300E-1	7.422025502E-2	-3.926490843E-1	6.442796707E0
2.991878810E-1	-3.423708379E-1	-9.816227108E-2	6.107608318E0
3.009552690E-1	-8.355764151E-1	2.489969730E-1	5.997475147E0
3.032653040E-1	-1.338358760E0	6.607996821E-1	6.047753334E0
3.045679230E-1	-1.788468719E0	1.086967587E0	6.179434776E0
3.073223430E-1	-2.126051188E0	1.484405041E0	6.327875137E0
3.090477690E-1	-2.315192938E0	1.836352706E0	6.442796707E0
3.113528810E-1	-2.394201756E0	2.121262789E0	6.509834290E0
3.125700380E-1	-2.398990154E0	2.319981337E0	6.550535679E0
3.154100740E-1	-2.475604534E0	2.537853718E0	6.859387875E0
3.170079990E-1	-3.162740469E0	2.966415882E0	8.549694061E0
3.194744580E-1	-4.345476151E0	3.670311213E0	1.149695683E1
3.207008070E-1	-4.608838081E0	4.398148537E0	1.388636971E1
3.235320740E-1	-3.320757866E0	4.754884720E0	1.471476364E1
3.252268460E-1	-1.379060149E0	4.697423935E0	1.424071217E1
3.275962270E-1	3.830722719E-2	4.477157116E0	1.346020222E1
3.289476530E-1	5.075707436E-1	4.340687752E0	1.286883450E1
3.316532660E-1	3.687070608E-1	4.393360138E0	1.248815632E1
3.329349610E-1	1.101332754E-1	4.465186119E0	1.219845772E1
3.357721120E-1	-4.548983276E-2	4.474762917E0	1.203325748E1
3.370671150E-1	-8.379705995E-2	4.517858505E0	1.206438255E1
3.398639580E-1	-6.703764945E-2	4.560954094E0	1.226310158E1
3.414739990E-1	2.154781483E-2	4.443638325E0	1.277306652E1
3.439276500E-1	7.900865376E-2	4.352658749E0	1.295502567E1
3.451514610E-1	2.537853718E-1	4.127603531E0	1.322796440E1
3.479849200E-1	4.836287498E-1	3.861847401E0	1.332373238E1
3.495941920E-1	8.212111592E-1	3.394978046E0	1.311783123E1
3.520303810E-1	9.217676520E-1	3.227383852E0	1.298375607E1
3.532514990E-1	1.094150186E0	2.870647907E0	1.267490387E1
3.560873430E-1	1.307234168E0	2.291250944E0	1.230859089E1
3.576890380E-1	1.455674648E0	1.869871497E0	1.220085144E1
3.601502660E-1	1.613691926E0	1.407790542E0	1.218169785E1
3.613783070E-1	1.788468719E0	9.241618514E-1	1.219606304E1
3.642066500E-1	1.989581585E0	4.477157295E-1	1.221042824E1
3.659050760E-1	2.193088770E0	-2.394201607E-2	1.218409252E1
3.682381530E-1	2.375048161E0	-4.764461517E-1	1.209550667E1
3.696553460E-1	2.516305923E0	-8.834604025E-1	1.195664310E1
3.723198040E-1	2.626439333E0	-1.237802267E0	1.176989555E1
3.738479990E-1	2.693476915E0	-1.544260144E0	1.156399441E1
3.763687660E-1	2.719813108E0	-1.793257117E0	1.132936287E1
3.776032300E-1	2.722207308E0	-1.996764183E0	1.108275986E1
3.804255350E-1	2.703053713E0	-2.166752577E0	1.082418633E1
3.820414610E-1	2.686294317E0	-2.305616140E0	1.053927612E1
3.844879190E-1	2.647987127E0	-2.379836559E0	1.020408726E1
3.857043460E-1	2.545036316E0	-2.420537949E0	9.864110947E0
3.885451120E-1	2.327163935E0	-2.504334927E0	9.629479408E0
3.901468840E-1	2.094926596E0	-2.588132143E0	9.540893555E0
3.925756120E-1	1.900996208E0	-2.547430515E0	9.485827446E0
3.938040380E-1	1.601720929E0	-2.363077164E0	9.222464561E0
3.966328810E-1	1.249773264E0	-2.068590164E0	8.655038834E0
3.982465760E-1	1.000776291E0	-1.675941229E0	7.927201748E0
4.007118420E-1	8.882488012E-1	-1.199495077E0	7.299921036E0
4.019373840E-1	8.595184088E-1	-6.727706790E-1	6.876147270E0
4.047689960E-1	8.355764151E-1	-1.532289088E-1	6.615179062E0
4.064566530E-1	6.751648784E-1	5.410895944E-1	6.368576527E0
4.086834610E-1	5.698199868E-1	7.398083210E-1	6.301538944E0
4.102561150E-1	2.753331959E-1	1.074996591E0	6.193799973E0
4.128749190E-1	-6.943184882E-2	1.331176162E0	6.162675381E0
4.142036920E-1	-3.567360640E-1	1.513135433E0	6.258443356E0
4.169935730E-1	-5.889736414E-1	1.649604917E0	6.500257492E0
4.182640760E-1	-7.900865674E-1	1.781286120E0	6.847416878E0
4.210851500E-1	-1.024718285E0	1.970427990E0	7.388506413E0
4.227060380E-1	-1.110909581E0	2.061407566E0	7.673416615E0
4.251631120E-1	-1.134851575E0	2.133233786E0	7.857769966E0
4.263857300E-1	-1.106121182E0	2.183511972E0	7.934384346E0
4.292198420E-1	-1.034295082E0	2.214636564E0	7.920019150E0
4.308134610E-1	-9.433154464E-1	2.207453966E0	7.845798969E0
4.332501500E-1	-8.403648138E-1	2.147598982E0	7.742848396E0
4.344870760E-1	-7.182605267E-1	1.963245392E0	7.596801758E0
4.373071120E-1	-6.177040339E-1	1.558625340E0	7.357381821E0
4.389104990E-1	-5.626373887E-1	1.209071875E0	7.175422668E0
4.413706880E-1	-4.908113480E-1	1.007958889E0	7.117961884E0
4.425971530E-1	-3.734954596E-1	8.786720037E-1	7.125144482E0
4.454270730E-1	-2.226607651E-1	7.541735172E-1	7.149086475E0
4.471183460E-1	-3.351882473E-2	6.033388376E-1	7.144298077E0
4.493573460E-1	1.939303428E-1	4.477157295E-1	7.108384609E0
4.507889610E-1	4.453215301E-1	2.801215947E-1	7.058106422E0
4.535475730E-1	7.637503147E-1	1.316810995E-1	7.089231014E0
4.552773070E-1	1.122880578E0	3.112462163E-2	7.340622425E0
4.576324960E-1	1.412579060E0	-3.591302410E-2	7.797914982E0
4.588618460E-1	1.608903527E0	-4.309562966E-2	8.432378769E0
4.616886500E-1	1.762132406E0	-1.436521020E-2	9.062053680E0
4.634166920E-1	1.915361404E0	6.703764945E-2	9.514557838E0
4.657511500E-1	2.080561161E0	1.699883193E-1	9.763554573E0
4.669840380E-1	2.236184359E0	2.274491638E-1	9.832986832E0
4.698070730E-1	2.358288765E0	2.274491638E-1	9.785101891E0
4.714282300E-1	2.597708941E0	2.825157940E-1	9.665391922E0
4.738530730E-1	2.748543501E0	3.782838583E-1	9.648633003E0
4.750774990E-1	3.172317266E0	6.512228847E-1	9.619902611E0
4.779093810E-1	3.639186621E0	8.571242094E-1	9.548076630E0
4.794925760E-1	4.309563160E0	9.696516991E-1	9.402029991E0
4.819721880E-1	4.525041103E0	9.864110947E-1	9.370905876E0
4.832054610E-1	4.929661274E0	1.003170490E0	9.299078941E0
4.860284580E-1	5.267243862E0	1.022324085E0	9.191340446E0
4.877319220E-1	5.619191170E0	1.048660398E0	8.987833023E0
4.899311150E-1	5.781997204E0	1.022324085E0	8.815450668E0
4.913120380E-1	5.925649166E0	9.457096457E-1	8.611943245E0
4.941438420E-1	6.040570736E0	8.475474119E-1	8.386888504E0
4.955207300E-1	6.059724331E0	7.541735172E-1	8.188169479E0
4.982453040E-1	5.973533154E0	6.727706790E-1	8.056488991E0
4.995234220E-1	5.765237808E0	6.129156351E-1	8.030152321E0
5.023369190E-1	5.427655220E0	5.698199868E-1	8.109161377E0
5.040308840E-1	4.965574265E0	5.363011956E-1	8.243236542E0
5.064009570E-1	4.446032524E0	5.243301988E-1	8.346187592E0
5.077846530E-1	4.074931145E0	5.219359994E-1	8.315062523E0
5.104569190E-1	4.173093796E0	4.548983276E-1	8.078036308E0
5.120519610E-1	4.786009312E0	3.040636182E-1	7.704541206E0
5.144857270E-1	5.559336185E0	9.097966552E-2	7.328651428E0
5.157524220E-1	6.138733387E0	-1.388636976E-1	7.029376030E0
5.185417650E-1	6.426037312E0	-3.495534360E-1	6.849811077E0
5.201499610E-1	6.521805286E0	-5.195417404E-1	6.775590897E0
5.226184960E-1	6.521805286E0	-6.344634295E-1	6.789956093E0
5.238558450E-1	6.449979305E0	-6.919242740E-1	6.859387875E0
5.266739960E-1	6.301538944E0	-6.823474765E-1	6.962338448E0
5.283544220E-1	5.944802761E0	-5.291185975E-1	7.163451672E0
5.305446530E-1	5.822698593E0	-4.548983276E-1	7.228095055E0
5.320082300E-1	5.604825974E0	-3.088520169E-1	7.333439827E0
5.347791500E-1	5.379771233E0	-1.747767180E-1	7.402871609E0
5.363142300E-1	5.104437828E0	-3.112462163E-2	7.453149796E0
5.388254190E-1	4.527435303E0	2.298433632E-1	7.481880188E0
5.400502300E-1	3.201047659E0	7.445967197E-1	7.493851185E0
5.428822270E-1	6.392518282E-1	1.668758631E0	7.580042362E0
5.445104220E-1	-5.597643375E0	3.883395195E0	8.130708694E0
5.469616110E-1	-7.800309181E0	4.685452938E0	8.382100105E0
5.482027300E-1	-1.081939793E1	5.853823185E0	8.707711220E0
5.510180730E-1	-1.120486355E1	6.174646378E0	8.532935143E0
5.526299220E-1	-8.896853447E0	5.679046631E0	7.599195957E0
5.550489190E-1	-8.061277390E0	5.487510204E0	7.256825447E0
5.562986920E-1	-6.627150536E0	5.178658485E0	6.653486729E0
5.591059570E-1	-4.613626480E0	4.814739704E0	5.951985359E0
5.607163840E-1	-3.112462282E0	4.508281708E0	5.623979568E0
5.631701880E-1	-1.659181833E0	4.173093796E0	5.398924828E0
5.643920380E-1	-5.267243981E-1	3.883395195E0	5.245696068E0
5.672264190E-1	1.628057212E-1	3.677493811E0	5.130774021E0
5.691871150E-1	5.219359994E-1	3.541024208E0	5.073313236E0
5.712911880E-1	8.427590132E-1	3.390189648E0	5.128379822E0
5.726394610E-1	1.331176162E0	3.160346270E0	5.262455463E0
5.753478800E-1	1.934514999E0	2.892195702E0	5.418078423E0
5.766633840E-1	2.545036316E0	2.624045134E0	5.585672379E0
5.794668030E-1	3.100491285E0	2.382230759E0	5.822698593E0
5.807996530E-1	3.572149038E0	2.176329374E0	6.184223175E0
5.835580340E-1	3.936067581E0	2.039859772E0	6.677428722E0
5.852058450E-1	4.185064793E0	1.984793186E0	7.240066051E0
5.876214570E-1	4.290409565E0	2.011129379E0	7.824251175E0
5.889133070E-1	4.252102375E0	2.104503393E0	8.408436775E0
5.916776880E-1	4.115632534E0	2.238578558E0	8.961497307E0
5.934014610E-1	3.931279182E0	2.394201756E0	9.461885452E0
5.957233030E-1	3.744531393E0	2.557007313E0	9.897629738E0
5.969599610E-1	3.598485231E0	2.705447912E0	1.024957752E1
5.997803420E-1	3.545812607E0	2.806004286E0	1.050336266E1
6.016265760E-1	3.696647406E0	2.822763920E0	1.075235939E1
6.038434570E-1	3.773261786E0	2.794033289E0	1.080982113E1
6.051251530E-1	3.936067581E0	2.695871115E0	1.090558910E1
6.079006880E-1	4.108449936E0	2.559401512E0	1.098699188E1
6.096111920E-1	4.299986362E0	2.324769735E0	1.108275986E1
6.118453450E-1	4.338293552E0	2.236184359E0	1.110670185E1
6.135544990E-1	4.414907932E0	2.042253971E0	1.115937424E1
6.160165720E-1	4.517858505E0	1.821987510E0	1.120007515E1
6.176072680E-1	4.754884720E0	1.462857246E0	1.110670185E1
6.200652650E-1	4.960785866E0	1.249773264E0	1.096065521E1
6.213662680E-1	5.133168221E0	1.072602391E0	1.075235939E1
6.241214950E-1	5.176264286E0	9.002198577E-1	1.046745014E1
6.257959990E-1	5.063736439E0	7.206547260E-1	1.026154804E1
6.281863030E-1	4.884171486E0	5.913678408E-1	1.022084713E1
6.294217300E-1	4.723760128E0	5.770025849E-1	1.024478912E1
6.322434950E-1	4.568136692E0	6.751648784E-1	1.024957752E1
6.341330760E-1	4.369418144E0	8.116343617E-1	1.026633644E1
6.362740720E-1	4.122815132E0	9.193734527E-1	1.030943298E1
6.374756920E-1	3.892971992E0	9.624691010E-1	1.035731697E1
6.403303420E-1	3.703830004E0	9.409212470E-1	1.038604736E1
6.419411530E-1	3.555389643E0	8.643068075E-1	1.040998936E1
6.444097650E-1	3.438073635E0	7.493851185E-1	1.042435455E1
6.456232680E-1	3.313575268E0	6.368576288E-1	1.041717148E1
6.484663030E-1	3.148375273E0	5.434837937E-1	1.041477776E1
6.501556920E-1	2.901772499E0	4.668693244E-1	1.042674828E1
6.523791150E-1	2.583343744E0	3.711012602E-1	1.044590187E1
6.537746530E-1	2.272097349E0	2.322375625E-1	1.044111347E1
6.565714570E-1	2.090138197E0	2.394201607E-2	1.034774017E1
6.579216150E-1	2.255337954E0	-2.298433632E-1	1.007001209E1
6.606628410E-1	2.542642117E0	-4.884171486E-1	9.674968719E0
6.619789610E-1	2.545036316E0	-7.422025204E-1	9.354146004E0
6.647542260E-1	2.389413357E0	-9.385270476E-1	9.069235802E0
6.664306530E-1	2.312798738E0	-1.142034173E0	8.678980827E0
6.688331490E-1	2.365471363E0	-1.204283476E0	8.571242332E0
6.701483840E-1	2.568978310E0	-1.323993564E0	8.401253700E0
6.728895340E-1	2.839523315E0	-1.436521053E0	8.310274124E0
6.747141150E-1	3.157952070E0	-1.505952835E0	8.391676903E0
6.769211490E-1	3.224989653E0	-1.496376038E0	8.374917984E0
6.781429610E-1	3.404554844E0	-1.513135433E0	8.283937454E0
6.809782640E-1	3.699041605E0	-1.623268723E0	8.406042099E0
6.826586920E-1	4.161122322E0	-1.716642618E0	9.339780807E0
6.850418410E-1	4.268861771E0	-1.659181833E0	9.770736694E0
6.863299220E-1	4.407725334E0	-1.434126854E0	1.062307262E1
6.890982260E-1	4.508281708E0	-9.457096457E-1	1.179623222E1
6.909557680E-1	4.594472885E0	-5.985504389E-1	1.251449203E1
6.930300380E-1	4.769249916E0	-2.944868207E-1	1.317289734E1
6.944058450E-1	5.027823448E0	-6.224924326E-2	1.367807388E1
6.972202260E-1	5.327098846E0	9.337386489E-2	1.397495556E1
6.988277680E-1	5.616796970E0	1.699883193E-1	1.408269405E1
